Depth dose profile, Perspex equivalent length	Automatic Fit	Selected window Fit
Window's range [ch]:	[267, 296]	[250, 298]
Window's range [mm]:	[27.62, 30.62]	[25.86, 30.83]
Peak position:	29.48 mm	29.48 mm
Peak-plateau ratio:	2.69  	2.55  
Clinical range (R90):	29.29 mm	29.29 mm
Peak width (@50%):	5.49 mm	6.28 mm
Entrance dose:	27.59 %	28.99 %
Modulation:	6.83 mm	6.83 mm

Perspex equivalent length	Automatic Fit	Selected window Fit
0.10	27.47	28.87
0.21	27.50	28.89
0.31	27.52	28.92
0.41	27.55	28.95
0.52	27.57	28.97
0.62	27.60	29.00
0.72	27.63	29.03
0.83	27.65	29.06
0.93	27.68	29.09
1.03	27.71	29.11
1.14	27.73	29.14
1.24	27.76	29.17
1.34	27.79	29.20
1.45	27.81	29.23
1.55	27.84	29.26
1.66	27.87	29.29
1.76	27.90	29.32
1.86	27.93	29.35
1.97	27.95	29.38
2.07	27.98	29.41
2.17	28.01	29.44
2.28	28.04	29.47
2.38	28.07	29.50
2.48	28.10	29.53
2.59	28.13	29.56
2.69	28.16	29.59
2.79	28.19	29.62
2.90	28.22	29.65
3.00	28.25	29.69
3.10	28.28	29.72
3.21	28.31	29.75
3.31	28.34	29.78
3.41	28.37	29.82
3.52	28.40	29.85
3.62	28.43	29.88
3.72	28.46	29.92
3.83	28.50	29.95
3.93	28.53	29.98
4.03	28.56	30.02
4.14	28.59	30.05
4.24	28.63	30.09
4.34	28.66	30.12
4.45	28.69	30.16
4.55	28.73	30.19
4.66	28.76	30.23
4.76	28.80	30.26
4.86	28.83	30.30
4.97	28.86	30.34
5.07	28.90	30.37
5.17	28.93	30.41
5.28	28.97	30.45
5.38	29.01	30.49
5.48	29.04	30.53
5.59	29.08	30.56
5.69	29.11	30.60
5.79	29.15	30.64
5.90	29.19	30.68
6.00	29.23	30.72
6.10	29.26	30.76
6.21	29.30	30.80
6.31	29.34	30.84
6.41	29.38	30.88
6.52	29.42	30.92
6.62	29.46	30.96
6.72	29.49	31.00
6.83	29.53	31.05
6.93	29.57	31.09
7.03	29.61	31.13
7.14	29.66	31.17
7.24	29.70	31.22
7.34	29.74	31.26
7.45	29.78	31.31
7.55	29.82	31.35
7.66	29.86	31.39
7.76	29.91	31.44
7.86	29.95	31.49
7.97	29.99	31.53
8.07	30.04	31.58
8.17	30.08	31.62
8.28	30.12	31.67
8.38	30.17	31.72
8.48	30.21	31.77
8.59	30.26	31.81
8.69	30.31	31.86
8.79	30.35	31.91
8.90	30.40	31.96
9.00	30.45	32.01
9.10	30.49	32.06
9.21	30.54	32.11
9.31	30.59	32.16
9.41	30.64	32.21
9.52	30.69	32.27
9.62	30.74	32.32
9.72	30.79	32.37
9.83	30.84	32.43
9.93	30.89	32.48
10.03	30.94	32.53
10.14	30.99	32.59
10.24	31.04	32.64
10.34	31.10	32.70
10.45	31.15	32.76
10.55	31.20	32.81
10.66	31.26	32.87
10.76	31.31	32.93
10.86	31.37	32.99
10.97	31.42	33.05
11.07	31.48	33.10
11.17	31.53	33.17
11.28	31.59	33.23
11.38	31.65	33.29
11.48	31.71	33.35
11.59	31.77	33.41
11.69	31.83	33.47
11.79	31.89	33.54
11.90	31.95	33.60
12.00	32.01	33.67
12.10	32.07	33.73
12.21	32.13	33.80
12.31	32.19	33.87
12.41	32.26	33.93
12.52	32.32	34.00
12.62	32.39	34.07
12.72	32.45	34.14
12.83	32.52	34.21
12.93	32.58	34.28
13.03	32.65	34.35
13.14	32.72	34.42
13.24	32.79	34.50
13.34	32.86	34.57
13.45	32.93	34.65
13.55	33.00	34.72
13.66	33.07	34.80
13.76	33.14	34.88
13.86	33.22	34.95
13.97	33.29	35.03
14.07	33.37	35.11
14.17	33.44	35.19
14.28	33.52	35.27
14.38	33.60	35.36
14.48	33.68	35.44
14.59	33.75	35.52
14.69	33.83	35.61
14.79	33.92	35.70
14.90	34.00	35.78
15.00	34.08	35.87
15.10	34.16	35.96
15.21	34.25	36.05
15.31	34.33	36.14
15.41	34.42	36.23
15.52	34.51	36.33
15.62	34.60	36.42
15.72	34.69	36.52
15.83	34.78	36.62
15.93	34.87	36.71
16.03	34.96	36.81
16.14	35.06	36.91
16.24	35.15	37.02
16.34	35.25	37.12
16.45	35.35	37.22
16.55	35.45	37.33
16.66	35.55	37.44
16.76	35.65	37.55
16.86	35.75	37.66
16.97	35.86	37.77
17.07	35.96	37.88
17.17	36.07	37.99
17.28	36.18	38.11
17.38	36.29	38.23
17.48	36.40	38.35
17.59	36.51	38.47
17.69	36.63	38.59
17.79	36.75	38.72
17.90	36.86	38.84
18.00	36.98	38.97
18.10	37.10	39.10
18.21	37.23	39.23
18.31	37.35	39.36
18.41	37.48	39.50
18.52	37.61	39.64
18.62	37.74	39.78
18.72	37.87	39.92
18.83	38.01	40.06
18.93	38.14	40.21
19.03	38.28	40.36
19.14	38.42	40.51
19.24	38.56	40.66
19.34	38.71	40.82
19.45	38.86	40.98
19.55	39.01	41.14
19.66	39.16	41.30
19.76	39.31	41.47
19.86	39.47	41.64
19.97	39.63	41.81
20.07	39.80	41.99
20.17	39.96	42.17
20.28	40.13	42.35
20.38	40.30	42.53
20.48	40.48	42.72
20.59	40.66	42.92
20.69	40.84	43.11
20.79	41.02	43.31
20.90	41.21	43.51
21.00	41.40	43.72
21.10	41.60	43.93
21.21	41.80	44.15
21.31	42.00	44.37
21.41	42.21	44.59
21.52	42.42	44.82
21.62	42.63	45.06
21.72	42.85	45.30
21.83	43.08	45.54
21.93	43.31	45.79
22.03	43.54	46.04
22.14	43.78	46.31
22.24	44.03	46.57
22.34	44.28	46.85
22.45	44.53	47.13
22.55	44.79	47.41
22.66	45.06	47.71
22.76	45.34	48.01
22.86	45.62	48.32
22.97	45.91	48.64
23.07	46.20	48.96
23.17	46.51	49.30
23.28	46.82	49.64
23.38	47.14	49.99
23.48	47.47	50.36
23.59	47.80	50.73
23.69	48.15	51.12
23.79	48.51	51.52
23.90	48.87	51.93
24.00	49.25	52.35
24.10	49.64	52.79
24.21	50.04	53.25
24.31	50.46	53.72
24.41	50.88	54.21
24.52	51.33	54.72
24.62	51.78	55.25
24.72	52.26	55.80
24.83	52.75	56.38
24.93	53.25	56.98
25.03	53.78	57.61
25.14	54.33	58.27
25.24	54.90	58.96
25.34	55.49	59.68
25.45	56.11	60.43
25.55	56.76	61.22
25.66	57.44	62.04
25.76	58.15	62.89
25.86	58.90	63.77
25.97	59.68	64.69
26.07	60.51	65.63
26.17	61.39	66.60
26.28	62.32	67.59
26.38	63.31	68.61
26.48	64.37	69.66
26.59	65.50	70.74
26.69	66.71	71.84
26.79	68.01	72.99
26.90	69.41	74.17
27.00	70.91	75.41
27.10	72.53	76.70
27.21	74.26	78.08
27.31	76.10	79.54
27.41	78.07	81.10
27.52	80.15	82.76
27.62	82.34	84.54
27.72	84.62	86.43
27.83	86.96	88.41
27.93	89.35	90.47
28.03	91.73	92.56
28.14	94.06	94.65
28.24	96.27	96.65
28.34	98.29	98.51
28.45	100.03	100.12
28.55	101.39	101.39
28.66	102.28	102.22
28.76	102.60	102.49
28.86	102.24	102.11
28.97	101.15	101.01
29.07	99.25	99.11
29.17	96.51	96.39
29.28	92.94	92.83
29.38	88.56	88.49
29.48	83.45	83.42
29.59	77.72	77.72
29.69	71.49	71.53
29.79	64.92	65.00
29.90	58.17	58.29
30.00	51.40	51.56
30.10	44.78	44.97
30.21	38.44	38.67
30.31	32.51	32.76
30.41	27.08	27.34
30.52	22.20	22.47
30.62	17.91	18.19
30.72	14.22	14.49
30.83	11.11	11.36
30.93	8.53	8.76
31.03	6.44	6.65
31.14	4.78	4.97
31.24	3.48	3.65
31.34	2.50	2.63
31.45	1.76	1.87
31.55	1.21	1.30
31.66	0.82	0.89
31.76	0.55	0.60
31.86	0.36	0.40
31.97	0.23	0.26
32.07	0.14	0.17
32.17	0.09	0.10
32.28	0.05	0.06
32.38	0.03	0.04
32.48	0.02	0.02
32.59	0.01	0.01
32.69	0.01	0.01
32.79	0.00	0.00
32.90	0.00	0.00
33.00	0.00	0.00
33.10	0.00	0.00
33.21	0.00	0.00
33.31	0.00	0.00
33.41	0.00	0.00
33.52	0.00	0.00
33.62	0.00	0.00
33.72	0.00	0.00
33.83	0.00	0.00
33.93	0.00	0.00
34.03	0.00	0.00
34.14	0.00	0.00
34.24	0.00	0.00
34.34	0.00	0.00
34.45	0.00	0.00
34.55	0.00	0.00
34.66	0.00	0.00
34.76	0.00	0.00
34.86	0.00	0.00
34.97	0.00	0.00
35.07	0.00	0.00
35.17	0.00	0.00
35.28	0.00	0.00
35.38	0.00	0.00
35.48	0.00	0.00
35.59	0.00	0.00
35.69	0.00	0.00
35.79	0.00	0.00
35.90	0.00	0.00
36.00	0.00	0.00
36.10	0.00	0.00
36.21	0.00	0.00
36.31	0.00	0.00
36.41	0.00	0.00
36.52	0.00	0.00
36.62	0.00	0.00
36.72	0.00	0.00
36.83	0.00	0.00
36.93	0.00	0.00
37.03	0.00	0.00
37.14	0.00	0.00
37.24	0.00	0.00
37.34	0.00	0.00
37.45	0.00	0.00
37.55	0.00	0.00
37.66	0.00	0.00
37.76	0.00	0.00
37.86	0.00	0.00
37.97	0.00	0.00
38.07	0.00	0.00
38.17	0.00	0.00
38.28	0.00	0.00
38.38	0.00	0.00
38.48	0.00	0.00
38.59	0.00	0.00
38.69	0.00	0.00
38.79	0.00	0.00
38.90	0.00	0.00
39.00	0.00	0.00
39.10	0.00	0.00
39.21	0.00	0.00
39.31	0.00	0.00
39.41	0.00	0.00
39.52	0.00	0.00
39.62	0.00	0.00
39.72	0.00	0.00
39.83	0.00	0.00
39.93	0.00	0.00
40.03	0.00	0.00
40.14	0.00	0.00
40.24	0.00	0.00
40.34	0.00	0.00
40.45	0.00	0.00
40.55	0.00	0.00
40.66	0.00	0.00
40.76	0.00	0.00
40.86	0.00	0.00
40.97	0.00	0.00
41.07	0.00	0.00
41.17	0.00	0.00
41.28	0.00	0.00
41.38	0.00	0.00
41.48	0.00	0.00
41.59	0.00	0.00
41.69	0.00	0.00
41.79	0.00	0.00
41.90	0.00	0.00
42.00	0.00	0.00
42.10	0.00	0.00
42.21	0.00	0.00
42.31	0.00	0.00
42.41	0.00	0.00
42.52	0.00	0.00
42.62	0.00	0.00
42.72	0.00	0.00
42.83	0.00	0.00
42.93	0.00	0.00
43.03	0.00	0.00
43.14	0.00	0.00
43.24	0.00	0.00
43.34	0.00	0.00
43.45	0.00	0.00
43.55	0.00	0.00
43.66	0.00	0.00
43.76	0.00	0.00
43.86	0.00	0.00
43.97	0.00	0.00
44.07	0.00	0.00
44.17	0.00	0.00
44.28	0.00	0.00
44.38	0.00	0.00
44.48	0.00	0.00
44.59	0.00	0.00
44.69	0.00	0.00
44.79	0.00	0.00
44.90	0.00	0.00
45.00	0.00	0.00
45.10	0.00	0.00
45.21	0.00	0.00
45.31	0.00	0.00
45.41	0.00	0.00
45.52	0.00	0.00
45.62	0.00	0.00
45.72	0.00	0.00
45.83	0.00	0.00
45.93	0.00	0.00
46.03	0.00	0.00
46.14	0.00	0.00
46.24	0.00	0.00
46.34	0.00	0.00
46.45	0.00	0.00
46.55	0.00	0.00
46.66	0.00	0.00
46.76	0.00	0.00
46.86	0.00	0.00
46.97	0.00	0.00
47.07	0.00	0.00
47.17	0.00	0.00
47.28	0.00	0.00
47.38	0.00	0.00
47.48	0.00	0.00
47.59	0.00	0.00
47.69	0.00	0.00
47.79	0.00	0.00
47.90	0.00	0.00
48.00	0.00	0.00
48.10	0.00	0.00
48.21	0.00	0.00
48.31	0.00	0.00
48.41	0.00	0.00
48.52	0.00	0.00
48.62	0.00	0.00
48.72	0.00	0.00
48.83	0.00	0.00
48.93	0.00	0.00
49.03	0.00	0.00
49.14	0.00	0.00
49.24	0.00	0.00
49.34	0.00	0.00
49.45	0.00	0.00
49.55	0.00	0.00
49.66	0.00	0.00
49.76	0.00	0.00
49.86	0.00	0.00
49.97	0.00	0.00
50.07	0.00	0.00
50.17	0.00	0.00
50.28	0.00	0.00
50.38	0.00	0.00
50.48	0.00	0.00
50.59	0.00	0.00
50.69	0.00	0.00
50.79	0.00	0.00
50.90	0.00	0.00
51.00	0.00	0.00
51.10	0.00	0.00
51.21	0.00	0.00
51.31	0.00	0.00
51.41	0.00	0.00
51.52	0.00	0.00
51.62	0.00	0.00
51.72	0.00	0.00
51.83	0.00	0.00
51.93	0.00	0.00
52.03	0.00	0.00
52.14	0.00	0.00
52.24	0.00	0.00
52.34	0.00	0.00
52.45	0.00	0.00
52.55	0.00	0.00
52.66	0.00	0.00
52.76	0.00	0.00
52.86	0.00	0.00
52.97	0.00	0.00