Depth dose profile, Eye tissue equivalent length	Automatic Fit	Selected window Fit
Window's range [ch]:	[270, 295]	[273, 292]
Window's range [mm]:	[30.86, 33.71]	[31.2, 33.371428571428574]
Peak position:	32.46 mm	32.46 mm
Peak-plateau ratio:	2.74  	2.79  
Clinical range (R90):	32.34 mm	32.33 mm
Peak width (@50%):	5.91 mm	5.64 mm
Entrance dose:	27.33 %	26.88 %
Modulation:	0.57 mm	0.55 mm

Eye tissue equivalent length	Automatic Fit	Selected window Fit
0.11	27.22	26.77
0.23	27.24	26.79
0.34	27.27	26.82
0.46	27.29	26.84
0.57	27.32	26.87
0.69	27.34	26.89
0.80	27.37	26.92
0.91	27.40	26.94
1.03	27.42	26.97
1.14	27.45	26.99
1.26	27.48	27.02
1.37	27.50	27.05
1.49	27.53	27.07
1.60	27.56	27.10
1.71	27.58	27.13
1.83	27.61	27.15
1.94	27.64	27.18
2.06	27.67	27.21
2.17	27.70	27.24
2.29	27.72	27.26
2.40	27.75	27.29
2.51	27.78	27.32
2.63	27.81	27.35
2.74	27.84	27.38
2.86	27.87	27.41
2.97	27.90	27.43
3.09	27.93	27.46
3.20	27.96	27.49
3.31	27.99	27.52
3.43	28.02	27.55
3.54	28.05	27.58
3.66	28.08	27.61
3.77	28.11	27.64
3.89	28.14	27.67
4.00	28.17	27.70
4.11	28.20	27.73
4.23	28.23	27.77
4.34	28.27	27.80
4.46	28.30	27.83
4.57	28.33	27.86
4.69	28.36	27.89
4.80	28.40	27.93
4.91	28.43	27.96
5.03	28.46	27.99
5.14	28.50	28.02
5.26	28.53	28.06
5.37	28.56	28.09
5.49	28.60	28.12
5.60	28.63	28.16
5.71	28.67	28.19
5.83	28.70	28.23
5.94	28.74	28.26
6.06	28.77	28.30
6.17	28.81	28.33
6.29	28.85	28.37
6.40	28.88	28.40
6.51	28.92	28.44
6.63	28.96	28.48
6.74	28.99	28.51
6.86	29.03	28.55
6.97	29.07	28.59
7.09	29.11	28.62
7.20	29.14	28.66
7.31	29.18	28.70
7.43	29.22	28.74
7.54	29.26	28.78
7.66	29.30	28.82
7.77	29.34	28.86
7.89	29.38	28.90
8.00	29.42	28.94
8.11	29.46	28.98
8.23	29.50	29.02
8.34	29.55	29.06
8.46	29.59	29.10
8.57	29.63	29.14
8.69	29.67	29.18
8.80	29.72	29.22
8.91	29.76	29.27
9.03	29.80	29.31
9.14	29.85	29.35
9.26	29.89	29.40
9.37	29.94	29.44
9.49	29.98	29.48
9.60	30.03	29.53
9.71	30.07	29.57
9.83	30.12	29.62
9.94	30.16	29.67
10.06	30.21	29.71
10.17	30.26	29.76
10.29	30.31	29.81
10.40	30.35	29.85
10.51	30.40	29.90
10.63	30.45	29.95
10.74	30.50	30.00
10.86	30.55	30.05
10.97	30.60	30.10
11.09	30.65	30.15
11.20	30.70	30.20
11.31	30.76	30.25
11.43	30.81	30.30
11.54	30.86	30.35
11.66	30.91	30.40
11.77	30.97	30.46
11.89	31.02	30.51
12.00	31.08	30.56
12.11	31.13	30.62
12.23	31.19	30.67
12.34	31.24	30.73
12.46	31.30	30.78
12.57	31.36	30.84
12.69	31.42	30.90
12.80	31.47	30.95
12.91	31.53	31.01
13.03	31.59	31.07
13.14	31.65	31.13
13.26	31.71	31.19
13.37	31.77	31.25
13.49	31.84	31.31
13.60	31.90	31.37
13.71	31.96	31.43
13.83	32.02	31.50
13.94	32.09	31.56
14.06	32.15	31.62
14.17	32.22	31.69
14.29	32.28	31.75
14.40	32.35	31.82
14.51	32.42	31.88
14.63	32.49	31.95
14.74	32.56	32.02
14.86	32.63	32.09
14.97	32.70	32.16
15.09	32.77	32.23
15.20	32.84	32.30
15.31	32.91	32.37
15.43	32.99	32.44
15.54	33.06	32.52
15.66	33.14	32.59
15.77	33.21	32.66
15.89	33.29	32.74
16.00	33.37	32.82
16.11	33.44	32.89
16.23	33.52	32.97
16.34	33.60	33.05
16.46	33.69	33.13
16.57	33.77	33.21
16.69	33.85	33.29
16.80	33.93	33.37
16.91	34.02	33.46
17.03	34.11	33.54
17.14	34.19	33.63
17.26	34.28	33.72
17.37	34.37	33.80
17.49	34.46	33.89
17.60	34.55	33.98
17.71	34.64	34.07
17.83	34.74	34.16
17.94	34.83	34.26
18.06	34.93	34.35
18.17	35.02	34.45
18.29	35.12	34.54
18.40	35.22	34.64
18.51	35.32	34.74
18.63	35.43	34.84
18.74	35.53	34.94
18.86	35.63	35.05
18.97	35.74	35.15
19.09	35.85	35.26
19.20	35.96	35.36
19.31	36.07	35.47
19.43	36.18	35.58
19.54	36.29	35.70
19.66	36.41	35.81
19.77	36.53	35.92
19.89	36.64	36.04
20.00	36.76	36.16
20.11	36.89	36.28
20.23	37.01	36.40
20.34	37.14	36.52
20.46	37.26	36.65
20.57	37.39	36.78
20.69	37.52	36.91
20.80	37.66	37.04
20.91	37.79	37.17
21.03	37.93	37.31
21.14	38.07	37.44
21.26	38.21	37.58
21.37	38.35	37.72
21.49	38.50	37.87
21.60	38.65	38.01
21.71	38.80	38.16
21.83	38.95	38.31
21.94	39.11	38.47
22.06	39.27	38.62
22.17	39.43	38.78
22.29	39.60	38.95
22.40	39.76	39.11
22.51	39.93	39.28
22.63	40.11	39.45
22.74	40.28	39.62
22.86	40.46	39.80
22.97	40.65	39.98
23.09	40.83	40.16
23.20	41.02	40.35
23.31	41.22	40.54
23.43	41.41	40.73
23.54	41.61	40.93
23.66	41.82	41.13
23.77	42.03	41.34
23.89	42.24	41.55
24.00	42.46	41.76
24.11	42.68	41.98
24.23	42.91	42.21
24.34	43.14	42.43
24.46	43.38	42.67
24.57	43.62	42.91
24.69	43.87	43.15
24.80	44.13	43.40
24.91	44.39	43.66
25.03	44.65	43.92
25.14	44.92	44.19
25.26	45.20	44.46
25.37	45.49	44.74
25.49	45.78	45.03
25.60	46.08	45.32
25.71	46.39	45.63
25.83	46.71	45.94
25.94	47.03	46.26
26.06	47.36	46.59
26.17	47.71	46.92
26.29	48.06	47.27
26.40	48.42	47.63
26.51	48.80	47.99
26.63	49.18	48.37
26.74	49.58	48.76
26.86	49.99	49.17
26.97	50.41	49.58
27.09	50.85	50.01
27.20	51.30	50.45
27.31	51.77	50.91
27.43	52.26	51.39
27.54	52.76	51.88
27.66	53.28	52.39
27.77	53.82	52.92
27.89	54.39	53.48
28.00	54.97	54.05
28.11	55.58	54.65
28.23	56.22	55.28
28.34	56.89	55.93
28.46	57.59	56.61
28.57	58.32	57.33
28.69	59.10	58.08
28.80	59.91	58.88
28.91	60.77	59.71
29.03	61.68	60.60
29.14	62.65	61.54
29.26	63.69	62.54
29.37	64.80	63.61
29.49	65.98	64.76
29.60	67.26	66.00
29.71	68.64	67.33
29.83	70.13	68.78
29.94	71.74	70.35
30.06	73.48	72.05
30.17	75.35	73.90
30.29	77.36	75.90
30.40	79.51	78.06
30.51	81.78	80.37
30.63	84.15	82.82
30.74	86.61	85.38
30.86	89.12	88.02
30.97	91.62	90.69
31.09	94.05	93.32
31.20	96.36	95.82
31.31	98.44	98.11
31.43	100.22	100.08
31.54	101.58	101.62
31.66	102.44	102.60
31.77	102.69	102.93
31.89	102.24	102.50
32.00	101.01	101.24
32.11	98.96	99.08
32.23	96.06	96.00
32.34	92.31	92.03
32.46	87.76	87.21
32.57	82.49	81.64
32.69	76.61	75.44
32.80	70.25	68.77
32.91	63.57	61.80
33.03	56.75	54.71
33.14	49.94	47.70
33.26	43.31	40.93
33.37	36.99	34.55
33.49	31.11	28.67
33.60	25.76	23.38
33.71	20.98	18.73
33.83	16.81	14.73
33.94	13.25	11.37
34.06	10.26	8.61
34.17	7.81	6.40
34.29	5.84	4.66
34.40	4.29	3.33
34.51	3.09	2.33
34.63	2.19	1.60
34.74	1.52	1.07
34.86	1.04	0.70
34.97	0.69	0.45
35.09	0.46	0.29
35.20	0.29	0.18
35.31	0.18	0.11
35.43	0.11	0.06
35.54	0.07	0.04
35.66	0.04	0.02
35.77	0.02	0.01
35.89	0.01	0.01
36.00	0.01	0.00
36.11	0.00	0.00
36.23	0.00	0.00
36.34	0.00	0.00
36.46	0.00	0.00
36.57	0.00	0.00
36.69	0.00	0.00
36.80	0.00	0.00
36.91	0.00	0.00
37.03	0.00	0.00
37.14	0.00	0.00
37.26	0.00	0.00
37.37	0.00	0.00
37.49	0.00	0.00
37.60	0.00	0.00
37.71	0.00	0.00
37.83	0.00	0.00
37.94	0.00	0.00
38.06	0.00	0.00
38.17	0.00	0.00
38.29	0.00	0.00
38.40	0.00	0.00
38.51	0.00	0.00
38.63	0.00	0.00
38.74	0.00	0.00
38.86	0.00	0.00
38.97	0.00	0.00
39.09	0.00	0.00
39.20	0.00	0.00
39.31	0.00	0.00
39.43	0.00	0.00
39.54	0.00	0.00
39.66	0.00	0.00
39.77	0.00	0.00
39.89	0.00	0.00
40.00	0.00	0.00
40.11	0.00	0.00
40.23	0.00	0.00
40.34	0.00	0.00
40.46	0.00	0.00
40.57	0.00	0.00
40.69	0.00	0.00
40.80	0.00	0.00
40.91	0.00	0.00
41.03	0.00	0.00
41.14	0.00	0.00
41.26	0.00	0.00
41.37	0.00	0.00
41.49	0.00	0.00
41.60	0.00	0.00
41.71	0.00	0.00
41.83	0.00	0.00
41.94	0.00	0.00
42.06	0.00	0.00
42.17	0.00	0.00
42.29	0.00	0.00
42.40	0.00	0.00
42.51	0.00	0.00
42.63	0.00	0.00
42.74	0.00	0.00
42.86	0.00	0.00
42.97	0.00	0.00
43.09	0.00	0.00
43.20	0.00	0.00
43.31	0.00	0.00
43.43	0.00	0.00
43.54	0.00	0.00
43.66	0.00	0.00
43.77	0.00	0.00
43.89	0.00	0.00
44.00	0.00	0.00
44.11	0.00	0.00
44.23	0.00	0.00
44.34	0.00	0.00
44.46	0.00	0.00
44.57	0.00	0.00
44.69	0.00	0.00
44.80	0.00	0.00
44.91	0.00	0.00
45.03	0.00	0.00
45.14	0.00	0.00
45.26	0.00	0.00
45.37	0.00	0.00
45.49	0.00	0.00
45.60	0.00	0.00
45.71	0.00	0.00
45.83	0.00	0.00
45.94	0.00	0.00
46.06	0.00	0.00
46.17	0.00	0.00
46.29	0.00	0.00
46.40	0.00	0.00
46.51	0.00	0.00
46.63	0.00	0.00
46.74	0.00	0.00
46.86	0.00	0.00
46.97	0.00	0.00
47.09	0.00	0.00
47.20	0.00	0.00
47.31	0.00	0.00
47.43	0.00	0.00
47.54	0.00	0.00
47.66	0.00	0.00
47.77	0.00	0.00
47.89	0.00	0.00
48.00	0.00	0.00
48.11	0.00	0.00
48.23	0.00	0.00
48.34	0.00	0.00
48.46	0.00	0.00
48.57	0.00	0.00
48.69	0.00	0.00
48.80	0.00	0.00
48.91	0.00	0.00
49.03	0.00	0.00
49.14	0.00	0.00
49.26	0.00	0.00
49.37	0.00	0.00
49.49	0.00	0.00
49.60	0.00	0.00
49.71	0.00	0.00
49.83	0.00	0.00
49.94	0.00	0.00
50.06	0.00	0.00
50.17	0.00	0.00
50.29	0.00	0.00
50.40	0.00	0.00
50.51	0.00	0.00
50.63	0.00	0.00
50.74	0.00	0.00
50.86	0.00	0.00
50.97	0.00	0.00
51.09	0.00	0.00
51.20	0.00	0.00
51.31	0.00	0.00
51.43	0.00	0.00
51.54	0.00	0.00
51.66	0.00	0.00
51.77	0.00	0.00
51.89	0.00	0.00
52.00	0.00	0.00
52.11	0.00	0.00
52.23	0.00	0.00
52.34	0.00	0.00
52.46	0.00	0.00
52.57	0.00	0.00
52.69	0.00	0.00
52.80	0.00	0.00
52.91	0.00	0.00
53.03	0.00	0.00
53.14	0.00	0.00
53.26	0.00	0.00
53.37	0.00	0.00
53.49	0.00	0.00
53.60	0.00	0.00
53.71	0.00	0.00
53.83	0.00	0.00
53.94	0.00	0.00
54.06	0.00	0.00
54.17	0.00	0.00
54.29	0.00	0.00
54.40	0.00	0.00
54.51	0.00	0.00
54.63	0.00	0.00
54.74	0.00	0.00
54.86	0.00	0.00
54.97	0.00	0.00
55.09	0.00	0.00
55.20	0.00	0.00
55.31	0.00	0.00
55.43	0.00	0.00
55.54	0.00	0.00
55.66	0.00	0.00
55.77	0.00	0.00
55.89	0.00	0.00
56.00	0.00	0.00
56.11	0.00	0.00
56.23	0.00	0.00
56.34	0.00	0.00
56.46	0.00	0.00
56.57	0.00	0.00
56.69	0.00	0.00
56.80	0.00	0.00
56.91	0.00	0.00
57.03	0.00	0.00
57.14	0.00	0.00
57.26	0.00	0.00
57.37	0.00	0.00
57.49	0.00	0.00
57.60	0.00	0.00
57.71	0.00	0.00
57.83	0.00	0.00
57.94	0.00	0.00
58.06	0.00	0.00
58.17	0.00	0.00
58.29	0.00	0.00
58.40	0.00	0.00
58.51	0.00	0.00