Depth dose profile, Water equivalent length	Automatic Fit	Selected range Fit
Window's range [ch]:	[122, 258]	[0, 511]
Window's range [mm]:	[14.64, 30.96]	[0.0, 61.32]
Peak position:	29.52 mm	29.52 mm
Peak-plateau ratio:	1.29  	2.56  
Clinical range (R90):	16.17 mm	16.10 mm
Peak width (@50%):	29.80 mm	23.35 mm
Entrance dose:	64.99 %	37.33 %

Water equivalent length	Automatic Fit	Selected range Fit
0.12	63.62	26.52
0.24	63.70	29.92
0.36	63.79	32.28
0.48	63.88	32.97
0.60	63.97	33.38
0.72	64.06	33.64
0.84	64.15	34.21
0.96	64.24	34.22
1.08	64.33	34.21
1.20	64.42	34.47
1.32	64.52	35.00
1.44	64.61	35.75
1.56	64.71	36.37
1.68	64.81	36.66
1.80	64.91	37.19
1.92	65.01	37.75
2.04	65.11	38.33
2.16	65.21	38.90
2.28	65.31	39.54
2.40	65.41	40.26
2.52	65.52	40.60
2.64	65.62	40.93
2.76	65.73	41.05
2.88	65.84	41.19
3.00	65.95	41.61
3.12	66.06	41.87
3.24	66.17	42.08
3.36	66.28	42.46
3.48	66.40	43.05
3.60	66.51	43.61
3.72	66.63	44.01
3.84	66.75	44.26
3.96	66.87	44.41
4.08	66.99	44.48
4.20	67.11	44.56
4.32	67.23	44.52
4.44	67.36	44.37
4.56	67.49	44.24
4.68	67.61	44.28
4.80	67.74	44.43
4.92	67.88	44.71
5.04	68.01	45.17
5.16	68.14	45.72
5.28	68.28	46.31
5.40	68.42	46.92
5.52	68.56	47.45
5.64	68.70	47.87
5.76	68.84	48.21
5.88	68.99	48.54
6.00	69.13	48.92
6.12	69.28	49.38
6.24	69.43	49.86
6.36	69.59	50.32
6.48	69.74	50.78
6.60	69.90	51.26
6.72	70.06	51.73
6.84	70.22	52.09
6.96	70.39	52.22
7.08	70.55	52.15
7.20	70.72	52.06
7.32	70.89	52.06
7.44	71.07	52.16
7.56	71.24	52.34
7.68	71.42	52.64
7.80	71.60	53.14
7.92	71.79	53.86
8.04	71.98	54.69
8.16	72.17	55.53
8.28	72.36	56.29
8.40	72.56	56.96
8.52	72.76	57.57
8.64	72.96	58.13
8.76	73.17	58.66
8.88	73.38	59.14
9.00	73.59	59.55
9.12	73.81	59.94
9.24	74.03	60.35
9.36	74.26	60.76
9.48	74.49	61.15
9.60	74.73	61.49
9.72	74.97	61.80
9.84	75.21	62.17
9.96	75.46	62.66
10.08	75.71	63.34
10.20	75.97	64.20
10.32	76.24	65.19
10.44	76.51	66.26
10.56	76.79	67.34
10.68	77.07	68.39
10.80	77.36	69.31
10.92	77.66	70.06
11.04	77.96	70.64
11.16	78.27	71.08
11.28	78.59	71.45
11.40	78.92	71.79
11.52	79.25	72.11
11.64	79.60	72.45
11.76	79.96	72.81
11.88	80.32	73.23
12.00	80.70	73.69
12.12	81.09	74.21
12.24	81.50	74.77
12.36	81.92	75.36
12.48	82.35	75.97
12.60	82.80	76.61
12.72	83.27	77.26
12.84	83.75	77.94
12.96	84.26	78.65
13.08	84.79	79.40
13.20	85.36	80.21
13.32	85.95	81.08
13.44	86.57	82.00
13.56	87.24	83.00
13.68	87.95	84.06
13.80	88.72	85.20
13.92	89.56	86.43
14.04	90.50	87.78
14.16	91.55	89.26
14.28	92.74	90.91
14.40	94.10	92.72
14.52	95.62	94.69
14.64	97.23	96.71
14.76	98.81	98.66
14.88	100.20	100.34
15.00	101.19	101.54
15.12	101.65	102.12
15.24	101.50	102.01
15.36	100.76	101.25
15.48	99.54	99.95
15.60	97.99	98.30
15.72	96.32	96.52
15.84	94.70	94.79
15.96	93.28	93.27
16.08	92.12	92.04
16.20	91.25	91.10
16.32	90.62	90.42
16.44	90.17	89.94
16.56	89.87	89.60
16.68	89.66	89.37
16.80	89.53	89.23
16.92	89.46	89.14
17.04	89.45	89.12
17.16	89.48	89.15
17.28	89.56	89.22
17.40	89.68	89.34
17.52	89.82	89.49
17.64	89.99	89.65
17.76	90.17	89.83
17.88	90.35	90.02
18.00	90.52	90.19
18.12	90.69	90.36
18.24	90.85	90.52
18.36	90.98	90.65
18.48	91.10	90.76
18.60	91.18	90.84
18.72	91.23	90.89
18.84	91.25	90.90
18.96	91.24	90.88
19.08	91.20	90.83
19.20	91.14	90.75
19.32	91.06	90.65
19.44	90.95	90.53
19.56	90.83	90.39
19.68	90.69	90.23
19.80	90.53	90.05
19.92	90.38	89.87
20.04	90.22	89.70
20.16	90.08	89.54
20.28	89.96	89.40
20.40	89.86	89.28
20.52	89.79	89.20
20.64	89.73	89.12
20.76	89.68	89.06
20.88	89.63	88.99
21.00	89.56	88.90
21.12	89.47	88.80
21.24	89.36	88.67
21.36	89.24	88.52
21.48	89.11	88.38
21.60	88.99	88.24
21.72	88.90	88.13
21.84	88.85	88.07
21.96	88.86	88.06
22.08	88.93	88.13
22.20	89.07	88.26
22.32	89.28	88.47
22.44	89.54	88.74
22.56	89.85	89.06
22.68	90.20	89.41
22.80	90.57	89.79
22.92	90.96	90.19
23.04	91.34	90.58
23.16	91.71	90.96
23.28	92.05	91.31
23.40	92.38	91.64
23.52	92.67	91.94
23.64	92.92	92.19
23.76	93.13	92.40
23.88	93.30	92.56
24.00	93.42	92.68
24.12	93.49	92.74
24.24	93.53	92.77
24.36	93.53	92.75
24.48	93.51	92.71
24.60	93.47	92.65
24.72	93.42	92.58
24.84	93.37	92.52
24.96	93.34	92.47
25.08	93.33	92.45
25.20	93.37	92.47
25.32	93.45	92.54
25.44	93.60	92.68
25.56	93.80	92.88
25.68	94.07	93.15
25.80	94.40	93.48
25.92	94.78	93.87
26.04	95.20	94.30
26.16	95.64	94.75
26.28	96.10	95.22
26.40	96.56	95.69
26.52	96.99	96.14
26.64	97.40	96.56
26.76	97.77	96.93
26.88	98.09	97.25
27.00	98.35	97.51
27.12	98.55	97.71
27.24	98.69	97.84
27.36	98.77	97.90
27.48	98.79	97.91
27.60	98.77	97.87
27.72	98.70	97.77
27.84	98.58	97.63
27.96	98.40	97.43
28.08	98.16	97.15
28.20	97.81	96.76
28.32	97.31	96.22
28.44	96.62	95.47
28.56	95.68	94.46
28.68	94.42	93.10
28.80	92.78	91.34
28.92	90.69	89.11
29.04	88.10	86.35
29.16	84.97	83.02
29.28	81.29	79.11
29.40	77.08	74.63
29.52	72.35	69.61
29.64	67.19	64.13
29.76	61.67	58.27
29.88	55.90	52.15
30.00	50.01	45.90
30.12	44.12	39.66
30.24	38.36	33.55
30.36	32.85	27.70
30.48	27.69	22.20
30.60	22.96	17.15
30.72	18.72	12.59
30.84	15.00	8.55
30.96	11.80	5.03
31.08	9.11	2.03
31.20	6.90	-0.50
31.32	5.13	-2.61
31.44	3.73	-4.33
31.56	2.66	-5.73
31.68	1.85	-6.86
31.80	1.27	-7.77
31.92	0.84	-8.49
32.04	0.55	-9.06
32.16	0.35	-9.51
32.28	0.22	-9.87
32.40	0.13	-10.15
32.52	0.08	-10.38
32.64	0.04	-10.55
32.76	0.03	-10.69
32.88	0.01	-10.81
33.00	0.01	-10.90
33.12	0.00	-10.97
33.24	0.00	-11.03
33.36	0.00	-11.08
33.48	0.00	-11.12
33.60	0.00	-11.16
33.72	0.00	-11.19
33.84	0.00	-11.21
33.96	0.00	-11.23
34.08	0.00	-11.24
34.20	0.00	-11.25
34.32	0.00	-11.24
34.44	0.00	-11.24
34.56	0.00	-11.22
34.68	0.00	-11.20
34.80	0.00	-11.17
34.92	0.00	-11.14
35.04	0.00	-11.10
35.16	0.00	-11.05
35.28	0.00	-11.01
35.40	0.00	-10.96
35.52	0.00	-10.91
35.64	0.00	-10.87
35.76	0.00	-10.83
35.88	0.00	-10.79
36.00	0.00	-10.76
36.12	0.00	-10.73
36.24	0.00	-10.71
36.36	0.00	-10.70
36.48	0.00	-10.69
36.60	0.00	-10.69
36.72	0.00	-10.70
36.84	0.00	-10.71
36.96	0.00	-10.74
37.08	0.00	-10.77
37.20	0.00	-10.81
37.32	0.00	-10.86
37.44	0.00	-10.92
37.56	0.00	-10.97
37.68	0.00	-11.03
37.80	0.00	-11.09
37.92	0.00	-11.14
38.04	0.00	-11.17
38.16	0.00	-11.20
38.28	0.00	-11.20
38.40	0.00	-11.18
38.52	0.00	-11.15
38.64	0.00	-11.08
38.76	0.00	-10.99
38.88	0.00	-10.88
39.00	0.00	-10.74
39.12	0.00	-10.58
39.24	0.00	-10.41
39.36	0.00	-10.22
39.48	0.00	-10.02
39.60	0.00	-9.81
39.72	0.00	-9.60
39.84	0.00	-9.39
39.96	0.00	-9.18
40.08	0.00	-8.98
40.20	0.00	-8.78
40.32	0.00	-8.59
40.44	0.00	-8.41
40.56	0.00	-8.24
40.68	0.00	-8.08
40.80	0.00	-7.93
40.92	0.00	-7.80
41.04	0.00	-7.68
41.16	0.00	-7.57
41.28	0.00	-7.48
41.40	0.00	-7.39
41.52	0.00	-7.32
41.64	0.00	-7.26
41.76	0.00	-7.21
41.88	0.00	-7.16
42.00	0.00	-7.12
42.12	0.00	-7.09
42.24	0.00	-7.05
42.36	0.00	-7.02
42.48	0.00	-6.98
42.60	0.00	-6.93
42.72	0.00	-6.88
42.84	0.00	-6.82
42.96	0.00	-6.75
43.08	0.00	-6.67
43.20	0.00	-6.59
43.32	0.00	-6.49
43.44	0.00	-6.38
43.56	0.00	-6.27
43.68	0.00	-6.15
43.80	0.00	-6.03
43.92	0.00	-5.90
44.04	0.00	-5.76
44.16	0.00	-5.63
44.28	0.00	-5.49
44.40	0.00	-5.35
44.52	0.00	-5.22
44.64	0.00	-5.08
44.76	0.00	-4.95
44.88	0.00	-4.82
45.00	0.00	-4.69
45.12	0.00	-4.56
45.24	0.00	-4.44
45.36	0.00	-4.33
45.48	0.00	-4.22
45.60	0.00	-4.13
45.72	0.00	-4.03
45.84	0.00	-3.95
45.96	0.00	-3.88
46.08	0.00	-3.81
46.20	0.00	-3.76
46.32	0.00	-3.71
46.44	0.00	-3.67
46.56	0.00	-3.64
46.68	0.00	-3.62
46.80	0.00	-3.61
46.92	0.00	-3.61
47.04	0.00	-3.60
47.16	0.00	-3.61
47.28	0.00	-3.61
47.40	0.00	-3.62
47.52	0.00	-3.63
47.64	0.00	-3.64
47.76	0.00	-3.64
47.88	0.00	-3.64
48.00	0.00	-3.64
48.12	0.00	-3.63
48.24	0.00	-3.62
48.36	0.00	-3.59
48.48	0.00	-3.57
48.60	0.00	-3.53
48.72	0.00	-3.49
48.84	0.00	-3.44
48.96	0.00	-3.38
49.08	0.00	-3.32
49.20	0.00	-3.26
49.32	0.00	-3.19
49.44	0.00	-3.12
49.56	0.00	-3.05
49.68	0.00	-2.98
49.80	0.00	-2.91
49.92	0.00	-2.84
50.04	0.00	-2.77
50.16	0.00	-2.71
50.28	0.00	-2.64
50.40	0.00	-2.58
50.52	0.00	-2.52
50.64	0.00	-2.46
50.76	0.00	-2.41
50.88	0.00	-2.35
51.00	0.00	-2.30
51.12	0.00	-2.24
51.24	0.00	-2.19
51.36	0.00	-2.14
51.48	0.00	-2.08
51.60	0.00	-2.03
51.72	0.00	-1.98
51.84	0.00	-1.92
51.96	0.00	-1.87
52.08	0.00	-1.81
52.20	0.00	-1.76
52.32	0.00	-1.71
52.44	0.00	-1.65
52.56	0.00	-1.60
52.68	0.00	-1.55
52.80	0.00	-1.50
52.92	0.00	-1.45
53.04	0.00	-1.39
53.16	0.00	-1.34
53.28	0.00	-1.29
53.40	0.00	-1.24
53.52	0.00	-1.19
53.64	0.00	-1.14
53.76	0.00	-1.10
53.88	0.00	-1.05
54.00	0.00	-1.00
54.12	0.00	-0.96
54.24	0.00	-0.92
54.36	0.00	-0.88
54.48	0.00	-0.84
54.60	0.00	-0.81
54.72	0.00	-0.78
54.84	0.00	-0.75
54.96	0.00	-0.73
55.08	0.00	-0.72
55.20	0.00	-0.70
55.32	0.00	-0.70
55.44	0.00	-0.70
55.56	0.00	-0.70
55.68	0.00	-0.71
55.80	0.00	-0.72
55.92	0.00	-0.74
56.04	0.00	-0.77
56.16	0.00	-0.80
56.28	0.00	-0.83
56.40	0.00	-0.87
56.52	0.00	-0.92
56.64	0.00	-0.96
56.76	0.00	-1.02
56.88	0.00	-1.07
57.00	0.00	-1.13
57.12	0.00	-1.19
57.24	0.00	-1.25
57.36	0.00	-1.31
57.48	0.00	-1.38
57.60	0.00	-1.44
57.72	0.00	-1.50
57.84	0.00	-1.57
57.96	0.00	-1.63
58.08	0.00	-1.68
58.20	0.00	-1.74
58.32	0.00	-1.79
58.44	0.00	-1.83
58.56	0.00	-1.87
58.68	0.00	-1.91
58.80	0.00	-1.93
58.92	0.00	-1.96
59.04	0.00	-1.98
59.16	0.00	-1.99
59.28	0.00	-1.99
59.40	0.00	-1.99
59.52	0.00	-1.98
59.64	0.00	-1.97
59.76	0.00	-1.95
59.88	0.00	-1.92
60.00	0.00	-1.88
60.12	0.00	-1.85
60.24	0.00	-1.80
60.36	0.00	-1.75
60.48	0.00	-1.69
60.60	0.00	-1.63
60.72	0.00	-1.56
60.84	0.00	-1.49
60.96	0.00	-1.42
61.08	0.00	-1.34
61.20	0.00	-1.26
61.32	0.00	-1.18
61.44	0.00	-1.10