Depth dose profile, Eye tissue equivalent length	Automatic Fit	Selected window Fit
Window's range [ch]:	[267, 296]	[250, 298]
Window's range [mm]:	[30.51, 33.83]	[28.57, 34.06]
Peak position:	32.57 mm	32.57 mm
Peak-plateau ratio:	2.69  	2.55  
Clinical range (R90):	32.36 mm	32.36 mm
Peak width (@50%):	6.07 mm	6.94 mm
Entrance dose:	27.59 %	28.99 %
Modulation:	0.59 mm	0.59 mm

Eye tissue equivalent length	Automatic Fit	Selected window Fit
0.11	27.47	28.87
0.23	27.50	28.89
0.34	27.52	28.92
0.46	27.55	28.95
0.57	27.57	28.97
0.69	27.60	29.00
0.80	27.63	29.03
0.91	27.65	29.06
1.03	27.68	29.09
1.14	27.71	29.11
1.26	27.73	29.14
1.37	27.76	29.17
1.49	27.79	29.20
1.60	27.81	29.23
1.71	27.84	29.26
1.83	27.87	29.29
1.94	27.90	29.32
2.06	27.93	29.35
2.17	27.95	29.38
2.29	27.98	29.41
2.40	28.01	29.44
2.51	28.04	29.47
2.63	28.07	29.50
2.74	28.10	29.53
2.86	28.13	29.56
2.97	28.16	29.59
3.09	28.19	29.62
3.20	28.22	29.65
3.31	28.25	29.69
3.43	28.28	29.72
3.54	28.31	29.75
3.66	28.34	29.78
3.77	28.37	29.82
3.89	28.40	29.85
4.00	28.43	29.88
4.11	28.46	29.92
4.23	28.50	29.95
4.34	28.53	29.98
4.46	28.56	30.02
4.57	28.59	30.05
4.69	28.63	30.09
4.80	28.66	30.12
4.91	28.69	30.16
5.03	28.73	30.19
5.14	28.76	30.23
5.26	28.80	30.26
5.37	28.83	30.30
5.49	28.86	30.34
5.60	28.90	30.37
5.71	28.93	30.41
5.83	28.97	30.45
5.94	29.01	30.49
6.06	29.04	30.53
6.17	29.08	30.56
6.29	29.11	30.60
6.40	29.15	30.64
6.51	29.19	30.68
6.63	29.23	30.72
6.74	29.26	30.76
6.86	29.30	30.80
6.97	29.34	30.84
7.09	29.38	30.88
7.20	29.42	30.92
7.31	29.46	30.96
7.43	29.49	31.00
7.54	29.53	31.05
7.66	29.57	31.09
7.77	29.61	31.13
7.89	29.66	31.17
8.00	29.70	31.22
8.11	29.74	31.26
8.23	29.78	31.31
8.34	29.82	31.35
8.46	29.86	31.39
8.57	29.91	31.44
8.69	29.95	31.49
8.80	29.99	31.53
8.91	30.04	31.58
9.03	30.08	31.62
9.14	30.12	31.67
9.26	30.17	31.72
9.37	30.21	31.77
9.49	30.26	31.81
9.60	30.31	31.86
9.71	30.35	31.91
9.83	30.40	31.96
9.94	30.45	32.01
10.06	30.49	32.06
10.17	30.54	32.11
10.29	30.59	32.16
10.40	30.64	32.21
10.51	30.69	32.27
10.63	30.74	32.32
10.74	30.79	32.37
10.86	30.84	32.43
10.97	30.89	32.48
11.09	30.94	32.53
11.20	30.99	32.59
11.31	31.04	32.64
11.43	31.10	32.70
11.54	31.15	32.76
11.66	31.20	32.81
11.77	31.26	32.87
11.89	31.31	32.93
12.00	31.37	32.99
12.11	31.42	33.05
12.23	31.48	33.10
12.34	31.53	33.17
12.46	31.59	33.23
12.57	31.65	33.29
12.69	31.71	33.35
12.80	31.77	33.41
12.91	31.83	33.47
13.03	31.89	33.54
13.14	31.95	33.60
13.26	32.01	33.67
13.37	32.07	33.73
13.49	32.13	33.80
13.60	32.19	33.87
13.71	32.26	33.93
13.83	32.32	34.00
13.94	32.39	34.07
14.06	32.45	34.14
14.17	32.52	34.21
14.29	32.58	34.28
14.40	32.65	34.35
14.51	32.72	34.42
14.63	32.79	34.50
14.74	32.86	34.57
14.86	32.93	34.65
14.97	33.00	34.72
15.09	33.07	34.80
15.20	33.14	34.88
15.31	33.22	34.95
15.43	33.29	35.03
15.54	33.37	35.11
15.66	33.44	35.19
15.77	33.52	35.27
15.89	33.60	35.36
16.00	33.68	35.44
16.11	33.75	35.52
16.23	33.83	35.61
16.34	33.92	35.70
16.46	34.00	35.78
16.57	34.08	35.87
16.69	34.16	35.96
16.80	34.25	36.05
16.91	34.33	36.14
17.03	34.42	36.23
17.14	34.51	36.33
17.26	34.60	36.42
17.37	34.69	36.52
17.49	34.78	36.62
17.60	34.87	36.71
17.71	34.96	36.81
17.83	35.06	36.91
17.94	35.15	37.02
18.06	35.25	37.12
18.17	35.35	37.22
18.29	35.45	37.33
18.40	35.55	37.44
18.51	35.65	37.55
18.63	35.75	37.66
18.74	35.86	37.77
18.86	35.96	37.88
18.97	36.07	37.99
19.09	36.18	38.11
19.20	36.29	38.23
19.31	36.40	38.35
19.43	36.51	38.47
19.54	36.63	38.59
19.66	36.75	38.72
19.77	36.86	38.84
19.89	36.98	38.97
20.00	37.10	39.10
20.11	37.23	39.23
20.23	37.35	39.36
20.34	37.48	39.50
20.46	37.61	39.64
20.57	37.74	39.78
20.69	37.87	39.92
20.80	38.01	40.06
20.91	38.14	40.21
21.03	38.28	40.36
21.14	38.42	40.51
21.26	38.56	40.66
21.37	38.71	40.82
21.49	38.86	40.98
21.60	39.01	41.14
21.71	39.16	41.30
21.83	39.31	41.47
21.94	39.47	41.64
22.06	39.63	41.81
22.17	39.80	41.99
22.29	39.96	42.17
22.40	40.13	42.35
22.51	40.30	42.53
22.63	40.48	42.72
22.74	40.66	42.92
22.86	40.84	43.11
22.97	41.02	43.31
23.09	41.21	43.51
23.20	41.40	43.72
23.31	41.60	43.93
23.43	41.80	44.15
23.54	42.00	44.37
23.66	42.21	44.59
23.77	42.42	44.82
23.89	42.63	45.06
24.00	42.85	45.30
24.11	43.08	45.54
24.23	43.31	45.79
24.34	43.54	46.04
24.46	43.78	46.31
24.57	44.03	46.57
24.69	44.28	46.85
24.80	44.53	47.13
24.91	44.79	47.41
25.03	45.06	47.71
25.14	45.34	48.01
25.26	45.62	48.32
25.37	45.91	48.64
25.49	46.20	48.96
25.60	46.51	49.30
25.71	46.82	49.64
25.83	47.14	49.99
25.94	47.47	50.36
26.06	47.80	50.73
26.17	48.15	51.12
26.29	48.51	51.52
26.40	48.87	51.93
26.51	49.25	52.35
26.63	49.64	52.79
26.74	50.04	53.25
26.86	50.46	53.72
26.97	50.88	54.21
27.09	51.33	54.72
27.20	51.78	55.25
27.31	52.26	55.80
27.43	52.75	56.38
27.54	53.25	56.98
27.66	53.78	57.61
27.77	54.33	58.27
27.89	54.90	58.96
28.00	55.49	59.68
28.11	56.11	60.43
28.23	56.76	61.22
28.34	57.44	62.04
28.46	58.15	62.89
28.57	58.90	63.77
28.69	59.68	64.69
28.80	60.51	65.63
28.91	61.39	66.60
29.03	62.32	67.59
29.14	63.31	68.61
29.26	64.37	69.66
29.37	65.50	70.74
29.49	66.71	71.84
29.60	68.01	72.99
29.71	69.41	74.17
29.83	70.91	75.41
29.94	72.53	76.70
30.06	74.26	78.08
30.17	76.10	79.54
30.29	78.07	81.10
30.40	80.15	82.76
30.51	82.34	84.54
30.63	84.62	86.43
30.74	86.96	88.41
30.86	89.35	90.47
30.97	91.73	92.56
31.09	94.06	94.65
31.20	96.27	96.65
31.31	98.29	98.51
31.43	100.03	100.12
31.54	101.39	101.39
31.66	102.28	102.22
31.77	102.60	102.49
31.89	102.24	102.11
32.00	101.15	101.01
32.11	99.25	99.11
32.23	96.51	96.39
32.34	92.94	92.83
32.46	88.56	88.49
32.57	83.45	83.42
32.69	77.72	77.72
32.80	71.49	71.53
32.91	64.92	65.00
33.03	58.17	58.29
33.14	51.40	51.56
33.26	44.78	44.97
33.37	38.44	38.67
33.49	32.51	32.76
33.60	27.08	27.34
33.71	22.20	22.47
33.83	17.91	18.19
33.94	14.22	14.49
34.06	11.11	11.36
34.17	8.53	8.76
34.29	6.44	6.65
34.40	4.78	4.97
34.51	3.48	3.65
34.63	2.50	2.63
34.74	1.76	1.87
34.86	1.21	1.30
34.97	0.82	0.89
35.09	0.55	0.60
35.20	0.36	0.40
35.31	0.23	0.26
35.43	0.14	0.17
35.54	0.09	0.10
35.66	0.05	0.06
35.77	0.03	0.04
35.89	0.02	0.02
36.00	0.01	0.01
36.11	0.01	0.01
36.23	0.00	0.00
36.34	0.00	0.00
36.46	0.00	0.00
36.57	0.00	0.00
36.69	0.00	0.00
36.80	0.00	0.00
36.91	0.00	0.00
37.03	0.00	0.00
37.14	0.00	0.00
37.26	0.00	0.00
37.37	0.00	0.00
37.49	0.00	0.00
37.60	0.00	0.00
37.71	0.00	0.00
37.83	0.00	0.00
37.94	0.00	0.00
38.06	0.00	0.00
38.17	0.00	0.00
38.29	0.00	0.00
38.40	0.00	0.00
38.51	0.00	0.00
38.63	0.00	0.00
38.74	0.00	0.00
38.86	0.00	0.00
38.97	0.00	0.00
39.09	0.00	0.00
39.20	0.00	0.00
39.31	0.00	0.00
39.43	0.00	0.00
39.54	0.00	0.00
39.66	0.00	0.00
39.77	0.00	0.00
39.89	0.00	0.00
40.00	0.00	0.00
40.11	0.00	0.00
40.23	0.00	0.00
40.34	0.00	0.00
40.46	0.00	0.00
40.57	0.00	0.00
40.69	0.00	0.00
40.80	0.00	0.00
40.91	0.00	0.00
41.03	0.00	0.00
41.14	0.00	0.00
41.26	0.00	0.00
41.37	0.00	0.00
41.49	0.00	0.00
41.60	0.00	0.00
41.71	0.00	0.00
41.83	0.00	0.00
41.94	0.00	0.00
42.06	0.00	0.00
42.17	0.00	0.00
42.29	0.00	0.00
42.40	0.00	0.00
42.51	0.00	0.00
42.63	0.00	0.00
42.74	0.00	0.00
42.86	0.00	0.00
42.97	0.00	0.00
43.09	0.00	0.00
43.20	0.00	0.00
43.31	0.00	0.00
43.43	0.00	0.00
43.54	0.00	0.00
43.66	0.00	0.00
43.77	0.00	0.00
43.89	0.00	0.00
44.00	0.00	0.00
44.11	0.00	0.00
44.23	0.00	0.00
44.34	0.00	0.00
44.46	0.00	0.00
44.57	0.00	0.00
44.69	0.00	0.00
44.80	0.00	0.00
44.91	0.00	0.00
45.03	0.00	0.00
45.14	0.00	0.00
45.26	0.00	0.00
45.37	0.00	0.00
45.49	0.00	0.00
45.60	0.00	0.00
45.71	0.00	0.00
45.83	0.00	0.00
45.94	0.00	0.00
46.06	0.00	0.00
46.17	0.00	0.00
46.29	0.00	0.00
46.40	0.00	0.00
46.51	0.00	0.00
46.63	0.00	0.00
46.74	0.00	0.00
46.86	0.00	0.00
46.97	0.00	0.00
47.09	0.00	0.00
47.20	0.00	0.00
47.31	0.00	0.00
47.43	0.00	0.00
47.54	0.00	0.00
47.66	0.00	0.00
47.77	0.00	0.00
47.89	0.00	0.00
48.00	0.00	0.00
48.11	0.00	0.00
48.23	0.00	0.00
48.34	0.00	0.00
48.46	0.00	0.00
48.57	0.00	0.00
48.69	0.00	0.00
48.80	0.00	0.00
48.91	0.00	0.00
49.03	0.00	0.00
49.14	0.00	0.00
49.26	0.00	0.00
49.37	0.00	0.00
49.49	0.00	0.00
49.60	0.00	0.00
49.71	0.00	0.00
49.83	0.00	0.00
49.94	0.00	0.00
50.06	0.00	0.00
50.17	0.00	0.00
50.29	0.00	0.00
50.40	0.00	0.00
50.51	0.00	0.00
50.63	0.00	0.00
50.74	0.00	0.00
50.86	0.00	0.00
50.97	0.00	0.00
51.09	0.00	0.00
51.20	0.00	0.00
51.31	0.00	0.00
51.43	0.00	0.00
51.54	0.00	0.00
51.66	0.00	0.00
51.77	0.00	0.00
51.89	0.00	0.00
52.00	0.00	0.00
52.11	0.00	0.00
52.23	0.00	0.00
52.34	0.00	0.00
52.46	0.00	0.00
52.57	0.00	0.00
52.69	0.00	0.00
52.80	0.00	0.00
52.91	0.00	0.00
53.03	0.00	0.00
53.14	0.00	0.00
53.26	0.00	0.00
53.37	0.00	0.00
53.49	0.00	0.00
53.60	0.00	0.00
53.71	0.00	0.00
53.83	0.00	0.00
53.94	0.00	0.00
54.06	0.00	0.00
54.17	0.00	0.00
54.29	0.00	0.00
54.40	0.00	0.00
54.51	0.00	0.00
54.63	0.00	0.00
54.74	0.00	0.00
54.86	0.00	0.00
54.97	0.00	0.00
55.09	0.00	0.00
55.20	0.00	0.00
55.31	0.00	0.00
55.43	0.00	0.00
55.54	0.00	0.00
55.66	0.00	0.00
55.77	0.00	0.00
55.89	0.00	0.00
56.00	0.00	0.00
56.11	0.00	0.00
56.23	0.00	0.00
56.34	0.00	0.00
56.46	0.00	0.00
56.57	0.00	0.00
56.69	0.00	0.00
56.80	0.00	0.00
56.91	0.00	0.00
57.03	0.00	0.00
57.14	0.00	0.00
57.26	0.00	0.00
57.37	0.00	0.00
57.49	0.00	0.00
57.60	0.00	0.00
57.71	0.00	0.00
57.83	0.00	0.00
57.94	0.00	0.00
58.06	0.00	0.00
58.17	0.00	0.00
58.29	0.00	0.00
58.40	0.00	0.00
58.51	0.00	0.00